wavelength,Oa01,Oa02,Oa03,Oa04,Oa05,Oa06,Oa07,Oa08,Oa09,Oa10,Oa11,Oa12,Oa13,Oa14,Oa15,Oa16,Oa17,Oa18,Oa19,Oa20,Oa21
387.8491516,2.489202941e-11,,,,,,,,,,,,,,,,,,,,
387.9671936,6.874398967e-11,,,,,,,,,,,,,,,,,,,,
388.0854492,1.857946436e-10,,,,,,,,,,,,,,,,,,,,
388.2038574,4.914368357e-10,,,,,,,,,,,,,,,,,,,,
388.321991,1.272185357e-09,,,,,,,,,,,,,,,,,,,,
388.4401245,3.223206591e-09,,,,,,,,,,,,,,,,,,,,
388.558197,7.992516871e-09,,,,,,,,,,,,,,,,,,,,
388.6762695,1.939693917e-08,,,,,,,,,,,,,,,,,,,,
388.7944641,4.607154125e-08,,,,,,,,,,,,,,,,,,,,
388.9123535,1.07094472e-07,,,,,,,,,,,,,,,,,,,,
389.0300293,2.436226794e-07,,,,,,,,,,,,,,,,,,,,
389.1481323,5.423272e-07,,,,,,,,,,,,,,,,,,,,
389.2663269,1.181314474e-06,,,,,,,,,,,,,,,,,,,,
389.3842773,2.517643452e-06,,,,,,,,,,,,,,,,,,,,
389.5024414,5.249327387e-06,,,,,,,,,,,,,,,,,,,,
389.6208496,1.070637973e-05,,,,,,,,,,,,,,,,,,,,
389.7393799,2.135775503e-05,,,,,,,,,,,,,,,,,,,,
389.8579712,4.166575309e-05,,,,,,,,,,,,,,,,,,,,
389.9759216,7.947706763e-05,,,,,,,,,,,,,,,,,,,,
390.0941162,0.0001482189691,,,,,,,,,,,,,,,,,,,,
390.2124023,0.0002702842175,,,,,,,,,,,,,,,,,,,,
390.3306274,0.0004821968614,,,,,,,,,,,,,,,,,,,,
390.4486694,0.0008419500664,,,,,,,,,,,,,,,,,,,,
390.5667419,0.0014393233,,,,,,,,,,,,,,,,,,,,
390.6849976,0.002408420667,,,,,,,,,,,,,,,,,,,,
390.8032837,0.003940049559,,,,,,,,,,,,,,,,,,,,
390.9214478,0.006297616288,,,,,,,,,,,,,,,,,,,,
391.0393677,0.009829284623,,,,,,,,,,,,,,,,,,,,
391.1572876,0.0149740139,,,,,,,,,,,,,,,,,,,,
391.275238,0.02226101793,,,,,,,,,,,,,,,,,,,,
391.3933105,0.03229994699,,,,,,,,,,,,,,,,,,,,
391.5113525,0.04568392411,,,,,,,,,,,,,,,,,,,,
391.6295166,0.06295651197,,,,,,,,,,,,,,,,,,,,
391.7477112,0.08452243358,,,,,,,,,,,,,,,,,,,,
391.8661499,0.1105427146,,,,,,,,,,,,,,,,,,,,
391.9847717,0.1408437192,,,,,,,,,,,,,,,,,,,,
392.1029053,0.1748568118,,,,,,,,,,,,,,,,,,,,
392.2210083,0.2116127163,,,,,,,,,,,,,,,,,,,,
392.3390503,0.2498088628,,,,,,,,,,,,,,,,,,,,
392.4572449,0.2879342139,,,,,,,,,,,,,,,,,,,,
392.5752563,0.3244426548,,,,,,,,,,,,,,,,,,,,
392.6933899,0.3579838574,,,,,,,,,,,,,,,,,,,,
392.8116455,0.3875853419,,,,,,,,,,,,,,,,,,,,
392.9300537,0.4127855599,,,,,,,,,,,,,,,,,,,,
393.0483398,0.4336616397,,,,,,,,,,,,,,,,,,,,
393.1664429,0.4507597685,,,,,,,,,,,,,,,,,,,,
393.2843628,0.4649279416,,,,,,,,,,,,,,,,,,,,
393.4024658,0.4771026671,,,,,,,,,,,,,,,,,,,,
393.5205383,0.4880509973,,,,,,,,,,,,,,,,,,,,
393.6385498,0.4982644916,,,,,,,,,,,,,,,,,,,,
393.7567444,0.5079115629,,,,,,,,,,,,,,,,,,,,
393.875061,0.516905427,,,,,,,,,,,,,,,,,,,,
393.9934082,0.525041461,,,,,,,,,,,,,,,,,,,,
394.1117859,0.5321701765,,,,,,,,,,,,,,,,,,,,
394.2295837,0.5383346677,,,,,,,,,,,,,,,,,,,,
394.3477783,0.5438270569,,,,,,,,,,,,,,,,,,,,
394.4657898,0.549105823,,,,,,,,,,,,,,,,,,,,
394.5837402,0.5546591878,,,,,,,,,,,,,,,,,,,,
394.7019043,0.5608803034,,,,,,,,,,,,,,,,,,,,
394.8201904,0.5679154396,,,,,,,,,,,,,,,,,,,,
394.9385071,0.5756248236,,,,,,,,,,,,,,,,,,,,
395.0567932,0.5836240649,,,,,,,,,,,,,,,,,,,,
395.1751709,0.5914304852,,,,,,,,,,,,,,,,,,,,
395.2930603,0.5986379981,,,,,,,,,,,,,,,,,,,,
395.4113464,0.6050752997,,,,,,,,,,,,,,,,,,,,
395.5295715,0.6108260751,,,,,,,,,,,,,,,,,,,,
395.6475525,0.6162466407,,,,,,,,,,,,,,,,,,,,
395.7657471,0.6218292713,,,,,,,,,,,,,,,,,,,,
395.8839417,0.6280308366,,,,,,,,,,,,,,,,,,,,
396.0022888,0.6351003647,,,,,,,,,,,,,,,,,,,,
396.1206665,0.6429896951,,,,,,,,,,,,,,,,,,,,
396.2390137,0.6513762474,,,,,,,,,,,,,,,,,,,,
396.3565979,0.6597809792,,,,,,,,,,,,,,,,,,,,
396.4743958,0.6677106619,,,,,,,,,,,,,,,,,,,,
396.5924377,0.6748377085,,,,,,,,,,,,,,,,,,,,
396.7104797,0.6811410785,,,,,,,,,,,,,,,,,,,,
396.8286133,0.68690449,,,,,,,,,,,,,,,,,,,,
396.9468994,0.692622602,,,,,,,,,,,,,,,,,,,,
397.0652466,0.6988193989,,,,,,,,,,,,,,,,,,,,
397.1836243,0.7058725953,,,,,,,,,,,,,,,,,,,,
397.3019714,0.713874042,,,,,,,,,,,,,,,,,,,,
397.4198303,0.7226088047,,,,,,,,,,,,,,,,,,,,
397.5380554,0.7315751314,,,,,,,,,,,,,,,,,,,,
397.6563721,0.7402108908,,,,,,,,,,,,,,,,,,,,
397.7745972,0.748075068,,,,,,,,,,,,,,,,,,,,
397.8929749,0.7550114989,,,,,,,,,,,,,,,,,,,,
398.0111694,0.7612025142,,,,,,,,,,,,,,,,,,,,
398.1295166,0.7671125531,,,,,,,,,,,,,,,,,,,,
398.2478638,0.7733247876,,,,,,,,,,,,,,,,,,,,
398.3659363,0.7803580165,,,,,,,,,,,,,,,,,,,,
398.4835815,0.788434267,,,,,,,,,,,,,,,,,,,,
398.6014099,0.7974132299,,,,,,,,,,,,,,,,,,,,
398.7192688,0.8068540096,,,,,,,,,,,,,,,,,,,,
398.8372192,0.8161548972,,,,,,,,,,,,,,,,,,,,
398.9552917,0.8247689605,,,,,,,,,,,,,,,,,,,,
399.0736084,0.8323889971,,,,,,,,,,,,,,,,,,,,
399.1919556,0.8390572667,,,,,,,,,,,,,,,,,,,,
399.3103027,0.8451717496,,,,,,,,,,,,,,,,,,,,
399.4287415,0.851290524,,,,,,,,,,,,,,,,,,,,
399.5466614,0.8579764962,,,,,,,,,,,,,,,,,,,,
399.6646729,0.865582943,,,,,,,,,,,,,,,,,,,,
399.7830811,0.8741198778,,,,,,,,,,,,,,,,,,,,
399.9015503,0.8832220435,,,,,,,,,,,,,,,,,,,,
400.0199585,0.8923082352,,,,,,,,,,,,,,,,,,,,
400.1383362,0.9006630182,,,,,,,,,,,,,,,,,,,,
400.2566833,0.9077937603,,,,,,,,,,,,,,,,,,,,
400.3748169,0.9132168889,,,,,,,,,,,,,,,,,,,,
400.4929504,0.9170727134,,,,,,,,,,,,,,,,,,,,
400.6105652,0.9199526906,,,,,,,,,,,,,,,,,,,,
400.7284546,0.9225222468,,,,,,,,,,,,,,,,,,,,
400.8464966,0.9252819419,,,,,,,,,,,,,,,,,,,,
400.9645081,0.9284045696,,,,,,,,,,,,,,,,,,,,
401.0823669,0.9319386482,,,,,,,,,,,,,,,,,,,,
401.20047,0.9354471564,,,,,,,,,,,,,,,,,,,,
401.3186951,0.9382453561,,,,,,,,,,,,,,,,,,,,
401.4370728,0.9398514628,,,,,,,,,,,,,,,,,,,,
401.5554504,0.9403864741,,,,,,,,,,,,,,,,,,,,
401.6734009,0.9401031733,,,,,,,,,,,,,,,,,,,,
401.7915955,0.9395586848,,,,,,,,,,,,,,,,,,,,
401.9099426,0.939442277,,,,,,,,,,,,,,,,,,,,
402.0283508,0.9403241277,,,,,,,,,,,,,,,,,,,,
402.1468506,0.942463696,,,,,,,,,,,,,,,,,,,,
402.2651978,0.94571805,,,,,,,,,,,,,,,,,,,,
402.3834534,0.9495829344,,,,,,,,,,,,,,,,,,,,
402.501709,0.9533691406,,,,,,,,,,,,,,,,,,,,
402.6012878,,1.982026626e-10,,,,,,,,,,,,,,,,,,,
402.619812,0.956433773,,,,,,,,,,,,,,,,,,,,
402.695282,,4.267287357e-10,,,,,,,,,,,,,,,,,,,
402.7376709,0.9584049582,,,,,,,,,,,,,,,,,,,,
402.7880554,,9.07201092e-10,,,,,,,,,,,,,,,,,,,
402.8555298,0.9593042731,,,,,,,,,,,,,,,,,,,,
402.8828735,,1.904433056e-09,,,,,,,,,,,,,,,,,,,
402.9734802,0.9595397711,,,,,,,,,,,,,,,,,,,,
402.9766541,,3.947666638e-09,,,,,,,,,,,,,,,,,,,
403.0705872,,8.080300873e-09,,,,,,,,,,,,,,,,,,,
403.0915527,0.9597671032,,,,,,,,,,,,,,,,,,,,
403.1634827,,1.63315157e-08,,,,,,,,,,,,,,,,,,,
403.2095642,0.9606335163,,,,,,,,,,,,,,,,,,,,
403.2579956,,3.259361847e-08,,,,,,,,,,,,,,,,,,,
403.3276367,0.9625829458,,,,,,,,,,,,,,,,,,,,
403.3519897,,6.42301714e-08,,,,,,,,,,,,,,,,,,,
403.4456482,0.9656688571,,,,,,,,,,,,,,,,,,,,
403.4460144,,1.249797918e-07,,,,,,,,,,,,,,,,,,,
403.5388184,,2.401171173e-07,,,,,,,,,,,,,,,,,,,
403.5638428,0.9695571661,,,,,,,,,,,,,,,,,,,,
403.6333313,,4.554894701e-07,,,,,,,,,,,,,,,,,,,
403.6820374,0.9736365676,,,,,,,,,,,,,,,,,,,,
403.7273254,,8.53081076e-07,,,,,,,,,,,,,,,,,,,
403.8002319,0.9772182107,,,,,,,,,,,,,,,,,,,,
403.8213501,,1.577389185e-06,,,,,,,,,,,,,,,,,,,
403.9141541,,2.879429985e-06,,,,,,,,,,,,,,,,,,,
403.9185181,0.9797905087,,,,,,,,,,,,,,,,,,,,
404.008728,,5.188846899e-06,,,,,,,,,,,,,,,,,,,
404.0366821,0.981202364,,,,,,,,,,,,,,,,,,,,
404.1027222,,9.23006337e-06,,,,,,,,,,,,,,,,,,,
404.1550903,0.9817143679,,,,,,,,,,,,,,,,,,,,
404.1966553,,1.62063061e-05,,,,,,,,,,,,,,,,,,,
404.2735596,0.9818717837,,,,,,,,,,,,,,,,,,,,
404.2895813,,2.808521276e-05,,,,,,,,,,,,,,,,,,,
404.3840332,,4.803454067e-05,,,,,,,,,,,,,,,,,,,
404.3917847,0.9823752046,,,,,,,,,,,,,,,,,,,,
404.4780273,,8.107331087e-05,,,,,,,,,,,,,,,,,,,
404.5100708,0.9837742448,,,,,,,,,,,,,,,,,,,,
404.572052,,0.0001350250095,,,,,,,,,,,,,,,,,,,
404.6283569,0.9862991571,,,,,,,,,,,,,,,,,,,,
404.6650391,,0.0002218814188,,,,,,,,,,,,,,,,,,,
404.746521,0.9897512794,,,,,,,,,,,,,,,,,,,,
404.7592773,,0.0003597126924,,,,,,,,,,,,,,,,,,,
404.8533325,,0.000575270562,,,,,,,,,,,,,,,,,,,
404.8646851,0.9935683608,,,,,,,,,,,,,,,,,,,,
404.9473572,,0.0009074548143,,,,,,,,,,,,,,,,,,,
404.9826965,0.9969841242,,,,,,,,,,,,,,,,,,,,
405.0404968,,0.001411769656,,,,,,,,,,,,,,,,,,,
405.100647,0.9992483258,,,,,,,,,,,,,,,,,,,,
405.1346741,,0.002165888902,,,,,,,,,,,,,,,,,,,
405.218689,0.99985075,,,,,,,,,,,,,,,,,,,,
405.2286682,,0.003276333213,,,,,,,,,,,,,,,,,,,
405.3227844,,0.004886149894,,,,,,,,,,,,,,,,,,,
405.3367615,0.9985693097,,,,,,,,,,,,,,,,,,,,
405.415802,,0.007183100097,,,,,,,,,,,,,,,,,,,
405.454834,0.9954356551,,,,,,,,,,,,,,,,,,,,
405.5099182,,0.01040801872,,,,,,,,,,,,,,,,,,,
405.5729065,0.99059093,,,,,,,,,,,,,,,,,,,,
405.6040649,,0.01486200653,,,,,,,,,,,,,,,,,,,
405.690979,0.9839541316,,,,,,,,,,,,,,,,,,,,
405.697998,,0.02091138251,,,,,,,,,,,,,,,,,,,
405.7912903,,0.02898842841,,,,,,,,,,,,,,,,,,,
405.809082,0.9750570655,,,,,,,,,,,,,,,,,,,,
405.8851624,,0.03958671913,,,,,,,,,,,,,,,,,,,
405.9270325,0.9628609419,,,,,,,,,,,,,,,,,,,,
405.9793701,,0.05324807391,,,,,,,,,,,,,,,,,,,
406.0453491,0.9458260536,,,,,,,,,,,,,,,,,,,,
406.0734558,,0.07053947449,,,,,,,,,,,,,,,,,,,
406.1636047,0.922082305,,,,,,,,,,,,,,,,,,,,
406.1665649,,0.09202110022,,,,,,,,,,,,,,,,,,,
406.2605286,,0.1182029843,,,,,,,,,,,,,,,,,,,
406.2817688,0.8898266554,,,,,,,,,,,,,,,,,,,,
406.3547668,,0.1494928449,,,,,,,,,,,,,,,,,,,
406.4000549,0.8476805687,,,,,,,,,,,,,,,,,,,,
406.4487915,,0.1861347854,,,,,,,,,,,,,,,,,,,
406.5183716,0.7951167226,,,,,,,,,,,,,,,,,,,,
406.5419922,,0.2281655073,,,,,,,,,,,,,,,,,,,
406.6358337,,0.2753617764,,,,,,,,,,,,,,,,,,,
406.6366577,0.7326772809,,,,,,,,,,,,,,,,,,,,
406.730072,,0.3272156119,,,,,,,,,,,,,,,,,,,
406.7549133,0.6619805694,,,,,,,,,,,,,,,,,,,,
406.8241882,,0.3829160631,,,,,,,,,,,,,,,,,,,
406.8731689,0.5855166316,,,,,,,,,,,,,,,,,,,,
406.9173889,,0.4413669109,,,,,,,,,,,,,,,,,,,
406.9915466,0.5063639283,,,,,,,,,,,,,,,,,,,,
407.0111084,,0.501252234,,,,,,,,,,,,,,,,,,,
407.1054077,,0.5611179471,,,,,,,,,,,,,,,,,,,
407.1097412,0.4278003871,,,,,,,,,,,,,,,,,,,,
407.1995239,,0.6194462776,,,,,,,,,,,,,,,,,,,
407.2277222,0.3528438509,,,,,,,,,,,,,,,,,,,,
407.2927551,,0.6747812629,,,,,,,,,,,,,,,,,,,
407.3456726,0.2839743793,,,,,,,,,,,,,,,,,,,,
407.3863831,,0.7258423567,,,,,,,,,,,,,,,,,,,
407.4639282,0.2229493707,,,,,,,,,,,,,,,,,,,,
407.4807129,,0.7716674209,,,,,,,,,,,,,,,,,,,
407.5749207,,0.8116524816,,,,,,,,,,,,,,,,,,,
407.5819397,0.1707347482,,,,,,,,,,,,,,,,,,,,
407.6681519,,0.8455880284,,,,,,,,,,,,,,,,,,,
407.7001343,0.127533257,,,,,,,,,,,,,,,,,,,,
407.7617493,,0.8736463189,,,,,,,,,,,,,,,,,,,
407.8181458,0.09292874485,,,,,,,,,,,,,,,,,,,,
407.8561401,,0.8963314891,,,,,,,,,,,,,,,,,,,
407.9363403,0.06606453657,,,,,,,,,,,,,,,,,,,,
407.9503174,,0.9143748879,,,,,,,,,,,,,,,,,,,
408.0435791,,0.9286504388,,,,,,,,,,,,,,,,,,,
408.0543823,0.04583226517,,,,,,,,,,,,,,,,,,,,
408.1371765,,0.9400243759,,,,,,,,,,,,,,,,,,,
408.1723633,0.03103614599,,,,,,,,,,,,,,,,,,,,
408.2314453,,0.9492512941,,,,,,,,,,,,,,,,,,,
408.2904053,0.02051961049,,,,,,,,,,,,,,,,,,,,
408.3256836,,0.9569131136,,,,,,,,,,,,,,,,,,,
408.4083557,0.01324916538,,,,,,,,,,,,,,,,,,,,
408.4189453,,0.9633938074,,,,,,,,,,,,,,,,,,,
408.5124512,,0.9688813686,,,,,,,,,,,,,,,,,,,
408.5266113,0.008357194252,,,,,,,,,,,,,,,,,,,,
408.60672,,0.9734153152,,,,,,,,,,,,,,,,,,,
408.644928,0.005151258782,,,,,,,,,,,,,,,,,,,,
408.7010193,,0.9769456983,,,,,,,,,,,,,,,,,,,
408.7631836,0.003103634575,,,,,,,,,,,,,,,,,,,,
408.794281,,0.9794180989,,,,,,,,,,,,,,,,,,,
408.8816223,0.001828313805,,,,,,,,,,,,,,,,,,,,
408.8877563,,0.9808441997,,,,,,,,,,,,,,,,,,,
408.9821472,,0.9813293815,,,,,,,,,,,,,,,,,,,
408.9999695,0.001053346437,,,,,,,,,,,,,,,,,,,,
409.0764465,,0.9810999632,,,,,,,,,,,,,,,,,,,
409.1181641,0.0005936645321,,,,,,,,,,,,,,,,,,,,
409.1695557,,0.9804634452,,,,,,,,,,,,,,,,,,,
409.2364197,0.000327385671,,,,,,,,,,,,,,,,,,,,
409.2631226,,0.9797749519,,,,,,,,,,,,,,,,,,,
409.3545837,0.0001766938221,,,,,,,,,,,,,,,,,,,,
409.3574219,,0.9793586135,,,,,,,,,,,,,,,,,,,
409.4519043,,0.979457736,,,,,,,,,,,,,,,,,,,
409.4727173,9.334957576e-05,,,,,,,,,,,,,,,,,,,,
409.5449219,,0.9801825881,,,,,,,,,,,,,,,,,,,
409.5909119,4.828489546e-05,,,,,,,,,,,,,,,,,,,,
409.6384583,,0.9814941883,,,,,,,,,,,,,,,,,,,
409.7091064,2.445628161e-05,,,,,,,,,,,,,,,,,,,,
409.7328796,,0.9832129478,,,,,,,,,,,,,,,,,,,
409.8273621,1.213149153e-05,0.9850696325,,,,,,,,,,,,,,,,,,,
409.9202271,,0.98675704,,,,,,,,,,,,,,,,,,,
409.9455872,5.894391506e-06,,,,,,,,,,,,,,,,,,,,
410.0138855,,0.9880082607,,,,,,,,,,,,,,,,,,,
410.0637512,2.805523764e-06,,,,,,,,,,,,,,,,,,,,
410.1082153,,0.9886525869,,,,,,,,,,,,,,,,,,,
410.1817322,1.308225819e-06,,,,,,,,,,,,,,,,,,,,
410.2027893,,0.9886525273,,,,,,,,,,,,,,,,,,,
410.2956848,,0.9881116748,,,,,,,,,,,,,,,,,,,
410.2998047,5.97697067e-07,,,,,,,,,,,,,,,,,,,,
410.3891907,,0.9872549772,,,,,,,,,,,,,,,,,,,
410.4175415,2.675685096e-07,,,,,,,,,,,,,,,,,,,,
410.4835815,,0.9863821864,,,,,,,,,,,,,,,,,,,
410.5351562,1.173742703e-07,,,,,,,,,,,,,,,,,,,,
410.5782471,,0.9857777953,,,,,,,,,,,,,,,,,,,
410.6531677,5.045606954e-08,,,,,,,,,,,,,,,,,,,,
410.67099,,0.9856901169,,,,,,,,,,,,,,,,,,,
410.7646179,,0.986227572,,,,,,,,,,,,,,,,,,,
410.7714233,2.125558396e-08,,,,,,,,,,,,,,,,,,,,
410.8589478,,0.9873753786,,,,,,,,,,,,,,,,,,,
410.8898315,8.775251636e-09,,,,,,,,,,,,,,,,,,,,
410.9536133,,0.9889726043,,,,,,,,,,,,,,,,,,,
411.0082703,3.550405747e-09,,,,,,,,,,,,,,,,,,,,
411.0462952,,0.9907656908,,,,,,,,,,,,,,,,,,,
411.1265869,1.407758354e-09,,,,,,,,,,,,,,,,,,,,
411.1399536,,0.9924498796,,,,,,,,,,,,,,,,,,,
411.234314,,0.9937548637,,,,,,,,,,,,,,,,,,,
411.244873,5.47025647e-10,,,,,,,,,,,,,,,,,,,,
411.328949,,0.9944784641,,,,,,,,,,,,,,,,,,,
411.3630371,2.083068301e-10,,,,,,,,,,,,,,,,,,,,
411.4216614,,0.994568944,,,,,,,,,,,,,,,,,,,
411.5152283,,0.9940928817,,,,,,,,,,,,,,,,,,,
411.6096497,,0.9932686687,,,,,,,,,,,,,,,,,,,
411.7043152,,0.9923576713,,,,,,,,,,,,,,,,,,,
411.796936,,0.9916641116,,,,,,,,,,,,,,,,,,,
411.8906555,,0.991429925,,,,,,,,,,,,,,,,,,,
411.9849854,,0.9917921424,,,,,,,,,,,,,,,,,,,
412.079834,,0.9927657247,,,,,,,,,,,,,,,,,,,
412.1723022,,0.9942037463,,,,,,,,,,,,,,,,,,,
412.2658691,,0.9958648086,,,,,,,,,,,,,,,,,,,
412.3602905,,0.997407198,,,,,,,,,,,,,,,,,,,
412.4551392,,0.9985646605,,,,,,,,,,,,,,,,,,,
412.5476379,,0.9991292357,,,,,,,,,,,,,,,,,,,
412.6412354,,0.9990115762,,,,,,,,,,,,,,,,,,,
412.7357178,,0.9982565045,,,,,,,,,,,,,,,,,,,
412.8305664,,0.9970487356,,,,,,,,,,,,,,,,,,,
412.9229431,,0.9956486821,,,,,,,,,,,,,,,,,,,
413.0166931,,0.9943681359,,,,,,,,,,,,,,,,,,,
413.1110229,,0.9934722185,,,,,,,,,,,,,,,,,,,
413.2059021,,0.9931145906,,,,,,,,,,,,,,,,,,,
413.2982483,,0.9933114052,,,,,,,,,,,,,,,,,,,
413.3919678,,0.9939312339,,,,,,,,,,,,,,,,,,,
413.4863892,,0.9947838187,,,,,,,,,,,,,,,,,,,
413.5812988,,0.9955895543,,,,,,,,,,,,,,,,,,,
413.6735535,,0.9960771799,,,,,,,,,,,,,,,,,,,
413.7673035,,0.9960411787,,,,,,,,,,,,,,,,,,,
413.8617249,,0.9953787327,,,,,,,,,,,,,,,,,,,
413.956665,,0.9941225648,,,,,,,,,,,,,,,,,,,
414.0488892,,0.9924624562,,,,,,,,,,,,,,,,,,,
414.1425781,,0.9906445146,,,,,,,,,,,,,,,,,,,
414.2370911,,0.9889650941,,,,,,,,,,,,,,,,,,,
414.3320007,,0.9876661897,,,,,,,,,,,,,,,,,,,
414.4242554,,0.986923039,,,,,,,,,,,,,,,,,,,
414.5177917,,0.9867770076,,,,,,,,,,,,,,,,,,,
414.6124878,,0.987124145,,,,,,,,,,,,,,,,,,,
414.7073059,,0.9877485633,,,,,,,,,,,,,,,,,,,
414.7996826,,0.9883349538,,,,,,,,,,,,,,,,,,,
414.8932495,,0.9885554314,,,,,,,,,,,,,,,,,,,
414.9878845,,0.9880990386,,,,,,,,,,,,,,,,,,,
415.0826111,,0.9867429137,,,,,,,,,,,,,,,,,,,
415.1749878,,0.9843491912,,,,,,,,,,,,,,,,,,,
415.2685852,,0.9808747768,,,,,,,,,,,,,,,,,,,
415.3633118,,0.9763258696,,,,,,,,,,,,,,,,,,,
415.4579163,,0.9706972241,,,,,,,,,,,,,,,,,,,
415.5503845,,0.963932097,,,,,,,,,,,,,,,,,,,
415.6439209,,0.9558265209,,,,,,,,,,,,,,,,,,,
415.738678,,0.94601053,,,,,,,,,,,,,,,,,,,
415.8331909,,0.9339424968,,,,,,,,,,,,,,,,,,,
415.9256897,,0.9189254642,,,,,,,,,,,,,,,,,,,
416.0192566,,0.9001773596,,,,,,,,,,,,,,,,,,,
416.1141357,,0.8769310117,,,,,,,,,,,,,,,,,,,
416.2084351,,0.848520875,,,,,,,,,,,,,,,,,,,
416.3010559,,0.8144983649,,,,,,,,,,,,,,,,,,,
416.3945923,,0.7747125626,,,,,,,,,,,,,,,,,,,
416.489502,,0.7293627858,,,,,,,,,,,,,,,,,,,
416.5837708,,0.6790134907,,,,,,,,,,,,,,,,,,,
416.6764832,,0.6245664358,,,,,,,,,,,,,,,,,,,
416.7698975,,0.5671914816,,,,,,,,,,,,,,,,,,,
416.8648071,,0.5082423687,,,,,,,,,,,,,,,,,,,
416.9591675,,0.449149996,,,,,,,,,,,,,,,,,,,
417.0518799,,0.3913126588,,,,,,,,,,,,,,,,,,,
417.1452332,,0.335999161,,,,,,,,,,,,,,,,,,,
417.2401733,,0.2842740715,,,,,,,,,,,,,,,,,,,
417.3343811,,0.2369499207,,,,,,,,,,,,,,,,,,,
417.4271545,,0.1945596188,,,,,,,,,,,,,,,,,,,
417.5205078,,0.1573612988,,,,,,,,,,,,,,,,,,,
417.6156006,,0.1253677607,,,,,,,,,,,,,,,,,,,
417.7098083,,0.09838488698,,,,,,,,,,,,,,,,,,,
417.8026123,,0.0760576129,,,,,,,,,,,,,,,,,,,
417.8960266,,0.05792390183,,,,,,,,,,,,,,,,,,,
417.9910583,,0.04346254095,,,,,,,,,,,,,,,,,,,
418.0851135,,0.03213316947,,,,,,,,,,,,,,,,,,,
418.1779785,,0.02341102995,,,,,,,,,,,,,,,,,,,
418.2712402,,0.01681001112,,,,,,,,,,,,,,,,,,,
418.3665161,,0.01189734507,,,,,,,,,,,,,,,,,,,
418.4604187,,0.008300831541,,,,,,,,,,,,,,,,,,,
418.5533447,,0.005710038356,,,,,,,,,,,,,,,,,,,
418.6466675,,0.003873107955,,,,,,,,,,,,,,,,,,,
418.7418213,,0.002590840915,,,,,,,,,,,,,,,,,,,
418.8357544,,0.001709393575,,,,,,,,,,,,,,,,,,,
418.928772,,0.001112544909,,,,,,,,,,,,,,,,,,,
419.0220337,,0.0007143709227,,,,,,,,,,,,,,,,,,,
419.1172485,,0.0004525961704,,,,,,,,,,,,,,,,,,,
419.2109985,,0.0002829626319,,,,,,,,,,,,,,,,,,,
419.3041077,,0.0001745917543,,,,,,,,,,,,,,,,,,,
419.3973389,,0.0001063263044,,,,,,,,,,,,,,,,,,,
419.4926453,,6.391835632e-05,,,,,,,,,,,,,,,,,,,
419.5863647,,3.793322321e-05,,,,,,,,,,,,,,,,,,,
419.6795044,,2.22260187e-05,,,,,,,,,,,,,,,,,,,
419.7727356,,1.285837516e-05,,,,,,,,,,,,,,,,,,,
419.8680115,,7.345552149e-06,,,,,,,,,,,,,,,,,,,
419.9616699,,4.143897513e-06,,,,,,,,,,,,,,,,,,,
420.0548706,,2.308686589e-06,,,,,,,,,,,,,,,,,,,
420.1481323,,1.270330131e-06,,,,,,,,,,,,,,,,,,,
420.2433777,,6.903759413e-07,,,,,,,,,,,,,,,,,,,
420.3370361,,3.705863776e-07,,,,,,,,,,,,,,,,,,,
420.4302368,,1.964922234e-07,,,,,,,,,,,,,,,,,,,
420.523468,,1.029123027e-07,,,,,,,,,,,,,,,,,,,
420.6187134,,5.324336527e-08,,,,,,,,,,,,,,,,,,,
420.7123718,,2.721143666e-08,,,,,,,,,,,,,,,,,,,
420.8056641,,1.373824876e-08,,,,,,,,,,,,,,,,,,,
420.8988647,,6.851886614e-09,,,,,,,,,,,,,,,,,,,
420.9940491,,3.375910662e-09,,,,,,,,,,,,,,,,,,,
421.087677,,1.643135294e-09,,,,,,,,,,,,,,,,,,,
421.1809998,,7.900540777e-10,,,,,,,,,,,,,,,,,,,
421.274231,,3.75267345e-10,,,,,,,,,,,,,,,,,,,
433.6598206,,,1.165617269e-09,,,,,,,,,,,,,,,,,,
433.7548218,,,2.357509743e-09,,,,,,,,,,,,,,,,,,
433.848999,,,4.714311164e-09,,,,,,,,,,,,,,,,,,
433.943512,,,9.320785921e-09,,,,,,,,,,,,,,,,,,
434.0357666,,,1.822023243e-08,,,,,,,,,,,,,,,,,,
434.1307983,,,3.521441272e-08,,,,,,,,,,,,,,,,,,
434.2249756,,,6.728976842e-08,,,,,,,,,,,,,,,,,,
434.3196716,,,1.271262562e-07,,,,,,,,,,,,,,,,,,
434.4118347,,,2.374506209e-07,,,,,,,,,,,,,,,,,,
434.5069275,,,4.384681347e-07,,,,,,,,,,,,,,,,,,
434.6010437,,,8.004074061e-07,,,,,,,,,,,,,,,,,,
434.6956787,,,1.444360691e-06,,,,,,,,,,,,,,,,,,
434.7878723,,,2.576385668e-06,,,,,,,,,,,,,,,,,,
434.8829651,,,4.542433089e-06,,,,,,,,,,,,,,,,,,
434.9770203,,,7.915597052e-06,,,,,,,,,,,,,,,,,,
435.0717163,,,1.363216325e-05,,,,,,,,,,,,,,,,,,
435.1638794,,,2.320053864e-05,,,,,,,,,,,,,,,,,,
435.2589722,,,3.901637319e-05,,,,,,,,,,,,,,,,,,
435.3530884,,,6.482878962e-05,,,,,,,,,,,,,,,,,,
435.4478455,,,0.0001064198077,,,,,,,,,,,,,,,,,,
435.5399475,,,0.0001725694892,,,,,,,,,,,,,,,,,,
435.6348877,,,0.0002764035016,,,,,,,,,,,,,,,,,,
435.729126,,,0.0004372332478,,,,,,,,,,,,,,,,,,
435.8238831,,,0.0006830000784,,,,,,,,,,,,,,,,,,
435.9159546,,,0.001053444226,,,,,,,,,,,,,,,,,,
436.0109253,,,0.001604100573,,,,,,,,,,,,,,,,,,
436.1051331,,,0.002411154099,,,,,,,,,,,,,,,,,,
436.1998901,,,0.003577137366,,,,,,,,,,,,,,,,,,
436.2919617,,,0.005237263162,,,,,,,,,,,,,,,,,,
436.3869324,,,0.007566175424,,,,,,,,,,,,,,,,,,
436.4811401,,,0.01078437641,,,,,,,,,,,,,,,,,,
436.5759888,,,0.01516377926,,,,,,,,,,,,,,,,,,
436.6679993,,,0.0210310109,,,,,,,,,,,,,,,,,,
436.7629395,,,0.02876766957,,,,,,,,,,,,,,,,,,
436.8572388,,,0.03880549595,,,,,,,,,,,,,,,,,,
